# Time (s), Z (m), Vz (m/s)
0.000000,1471.466078,0.000000
0.002024,1471.468102,1.000073
0.004047,1471.472150,2.000224
0.042610,1471.917013,21.072049
0.081173,1473.097797,40.167734
0.119735,1475.015334,59.282848
0.124723,1475.317173,61.756356
0.126864,1475.451674,62.818150
0.129005,1475.588448,63.879988
0.168558,1478.503165,83.501727
0.208112,1482.194181,103.133265
0.247665,1486.661787,122.769735
0.318376,1496.584076,157.873050
0.389088,1508.987759,192.947607
0.459799,1523.869782,227.965746
0.489402,1530.834949,242.602330
0.519006,1538.233156,257.221993
0.548609,1546.063871,271.822673
0.581480,1555.265063,288.010573
0.614350,1564.997874,304.169777
0.647221,1575.261345,320.297776
0.680092,1586.054409,336.392047
0.696359,1591.591269,344.343607
0.712627,1597.257405,352.286022
0.728894,1603.052666,360.219005
0.746406,1609.435424,368.748023
0.763918,1615.967439,377.265438
0.781429,1622.648505,385.770898
0.807176,1632.741488,398.253494
0.832923,1643.155498,410.708347
0.858669,1653.889807,423.134301
0.871490,1659.354143,429.310636
0.884310,1664.897613,435.479369
0.897130,1670.520119,441.640349
0.919092,1680.335040,452.175879
0.941054,1690.381078,462.687494
0.963016,1700.657700,473.174461
0.977947,1707.775692,480.289632
0.992877,1714.999830,487.392858
1.007808,1722.329934,494.483926
1.049150,1743.177639,514.053207
1.090492,1764.832277,533.523206
1.131833,1787.289717,552.889905
1.173175,1810.545606,572.149394
1.210559,1832.258793,589.469673
1.247944,1854.617741,606.696591
1.285328,1877.618914,623.827565
1.352961,1920.851811,654.568378
1.420593,1966.151997,684.972351
1.433751,1975.203286,690.847040
1.446909,1984.331784,696.708373
1.460066,1993.537316,702.556245
1.480664,2008.102423,711.683550
1.501262,2022.855186,720.777204
1.521860,2037.794907,729.836790
1.549093,2057.833699,741.762098
1.576327,2078.196377,753.625929
1.603561,2098.881301,765.427025
1.615811,2108.290076,770.714225
1.628061,2117.763537,775.988074
1.637623,2125.203651,780.095533
1.647186,2132.683003,784.194504
1.656749,2140.201509,788.284780
1.669847,2150.563607,793.873021
1.682946,2160.998781,799.443639
1.696045,2171.506802,804.995531
1.709143,2182.087415,810.527161
1.722242,2192.740340,816.036355
1.732577,2201.196580,820.365424
1.742912,2209.697471,824.676466
1.753247,2218.242812,828.966533
1.763582,2226.832364,833.231517
1.771731,2233.635322,836.572659
1.779879,2240.465412,839.890789
1.788027,2247.322428,843.180734
1.796175,2254.206113,846.435534
1.805574,2262.179380,850.134102
1.814974,2270.187054,853.752991
1.824373,2278.228256,857.262982
1.833772,2286.301777,860.621799
1.843171,2294.405925,863.767811
1.852571,2302.538301,866.611047
1.861970,2310.695481,869.020245
1.869364,2317.126840,870.489129
1.876758,2323.567252,871.445565
1.884152,2330.012338,871.722122
1.891546,2336.456304,871.102859
1.897322,2341.484551,869.823506
1.903098,2346.502993,867.681471
1.908875,2351.506169,864.508414
1.913683,2355.654656,860.954004
1.918491,2359.783847,856.466138
1.923299,2363.889048,850.962293
1.928107,2367.965229,844.388628
1.932915,2372.007206,836.737431
1.937723,2376.009910,828.067389
1.942532,2379.968754,818.525147
1.947340,2383.880112,808.366288
1.951067,2386.878498,800.304449
1.954795,2389.846928,792.336961
1.958523,2392.786279,784.757251
1.962251,2395.698638,777.919721
1.965979,2398.587536,772.246221
1.968930,2400.861466,768.906298
1.969668,2401.428547,768.266751
1.970406,2401.995188,767.714937
1.971143,2402.561457,767.255976
1.971291,2402.674672,767.175825
1.971328,2402.702974,767.156414
1.971365,2402.731275,767.137262
1.971402,2402.759575,767.118381
1.971413,2402.768079,767.112778
1.971424,2402.776583,767.107208
1.971446,2402.793590,767.096219
1.971447,2402.794789,767.095463
1.971449,2402.795989,767.094725
1.971450,2402.796439,767.094453
1.971450,2402.796890,767.094189
1.971451,2402.797790,767.093591
1.971453,2402.798691,767.092872
1.971454,2402.799592,767.092094
1.971456,2402.801092,767.090773
1.971458,2402.802592,767.089447
1.971464,2402.807540,767.085055
1.971471,2402.812489,767.080657
1.971490,2402.827599,767.067216
1.971510,2402.842708,767.053773
1.971559,2402.880529,767.020133
1.971609,2402.918348,766.986511
1.971658,2402.956165,766.952914
1.971916,2403.153948,766.777640
1.972174,2403.351687,766.603195
1.972432,2403.549380,766.429652
1.973004,2403.988233,766.047759
1.973577,2404.426869,765.671125
1.974150,2404.865290,765.300098
1.974211,2404.912094,765.260835
1.974230,2404.926640,765.248663
1.974235,2404.930276,765.245622
1.974239,2404.933913,765.242584
1.974249,2404.941186,765.236530
1.974250,2404.941890,765.235953
1.974250,2404.942067,765.235809
1.974250,2404.942243,765.235665
1.974251,2404.942595,765.235235
1.974251,2404.942947,765.234651
1.974252,2404.943300,765.234055
1.974253,2404.944209,765.232512
1.974254,2404.945118,765.230966
1.974255,2404.946027,765.229419
1.974260,2404.949694,765.223177
1.974265,2404.953361,765.216930
1.974270,2404.957028,765.210679
1.974288,2404.971322,765.186276
1.974307,2404.985615,765.161816
1.974326,2404.999907,765.137302
1.974404,2405.059582,765.034342
1.974440,2405.087168,764.986308
1.974445,2405.090836,764.979916
1.974449,2405.094504,764.973511
1.974450,2405.094606,764.973333
1.974450,2405.094708,764.973154
1.974450,2405.094810,764.972976
1.974450,2405.094913,764.972797
1.974450,2405.095015,764.972618
1.974450,2405.095219,764.972262
1.974451,2405.095423,764.971941
1.974451,2405.095898,764.971212
1.974452,2405.096373,764.970502
1.974452,2405.096848,764.969793
1.974457,2405.100012,764.965083
1.974461,2405.103176,764.960373
1.974482,2405.119320,764.936303
1.974503,2405.135463,764.912187
1.974560,2405.178964,764.847027
1.974617,2405.222461,764.781527
1.974674,2405.265954,764.715684
1.975124,2405.610597,764.181856
1.975575,2405.954993,763.627260
1.976026,2406.299135,763.052516
1.977449,2407.383425,761.113048
1.978872,2408.464825,758.998096
1.980294,2409.543101,756.725481
1.981717,2410.618042,754.312402
1.983870,2412.237863,750.429760
1.986023,2413.849065,746.313912
1.988176,2415.451198,742.010629
1.990329,2417.043901,737.560087
1.992482,2418.626895,732.996983
1.996329,2421.431258,724.651602
2.000177,2424.203221,716.171885
2.004025,2426.942454,707.652794
2.007872,2429.648939,699.158859
2.011720,2432.322860,690.731776
2.015568,2434.964526,682.396529
2.020652,2438.406092,671.545318
2.025736,2441.792980,660.886634
2.030820,2445.126162,650.416381
2.035903,2448.406571,640.123567
2.040987,2451.635075,629.994784
2.046071,2454.812474,620.016904
2.051413,2458.096970,609.682429
2.056755,2461.326646,599.491471
2.062097,2464.502247,589.436353
2.067439,2467.624484,579.511831
2.072781,2470.694045,569.714426
2.078124,2473.711601,560.041651
2.086881,2478.547627,544.448187
2.095638,2483.248488,529.169872
2.104396,2487.816856,514.184960
2.113153,2492.255173,499.463221
2.121911,2496.565589,484.970671
2.130668,2500.749988,470.680706
2.139426,2504.810108,456.590868
2.147250,2508.333991,444.205205
2.155074,2511.761948,432.087502
2.162898,2515.096542,420.365881
2.170723,2518.341559,409.226203
2.178547,2521.502456,398.907458
2.186371,2524.586718,389.685467
2.193468,2527.326030,382.508407
2.200565,2530.019023,376.662047
2.207662,2532.675713,372.297969
2.214758,2535.306974,369.504127
2.221855,2537.924033,368.289568
2.228952,2540.537874,368.576607
2.236471,2543.315059,370.334840
2.243991,2546.110219,373.300703
2.251510,2548.931070,377.100177
2.259029,2551.782293,381.304744
2.266548,2554.665249,385.465865
2.274068,2557.577972,389.154207
2.277147,2558.778461,390.439599
2.280227,2559.982662,391.560976
2.283307,2561.190040,392.499812
2.286386,2562.400008,393.240710
2.289466,2563.611937,393.771550
2.295839,2566.123009,394.168860
2.302211,2568.633526,393.599306
2.308583,2571.137379,392.084263
2.314956,2573.628731,389.689988
2.321328,2576.102280,386.515180
2.327701,2578.553421,382.677530
2.335268,2581.429592,377.431156
2.342834,2584.263830,371.625069
2.350401,2587.052584,365.435716
2.357968,2589.793524,359.007836
2.365534,2592.485287,352.453332
2.373101,2595.127245,345.855217
2.381785,2598.097845,338.307777
2.390469,2601.003271,330.855874
2.399153,2603.844640,323.566668
2.407837,2606.623684,316.516068
2.416521,2609.342869,309.798637
2.425205,2612.005581,303.531733
2.435784,2615.179557,296.707547
2.446363,2618.287168,291.032282
2.456941,2621.342017,286.775249
2.467520,2624.360347,284.159184
2.478099,2627.360325,283.318400
2.488677,2630.360918,284.265713
2.498236,2633.088134,286.558341
2.507795,2635.843064,290.026583
2.517354,2638.635781,294.417173
2.526913,2641.473717,299.437329
2.536472,2644.361457,304.789146
2.546031,2647.300845,310.202657
2.555590,2650.291385,315.461314
2.565149,2653.330829,320.416571
2.574708,2656.415853,324.991104
2.584267,2659.542713,329.172790
2.593826,2662.707813,333.002656
2.603385,2665.908146,336.560114
2.612943,2669.141586,339.947971
2.622502,2672.407048,343.278715
2.632061,2675.704519,346.662735
2.643400,2679.658939,350.880530
2.654739,2683.663022,355.438700
2.666078,2687.721102,360.413062
2.677417,2691.838046,365.818827
2.688756,2696.018535,371.608102
2.700095,2700.266360,377.673390
2.711434,2704.583800,383.857349
2.722440,2708.841246,389.791688
2.733445,2713.162761,395.468422
2.744451,2717.544486,400.703736
2.755457,2721.980644,405.336079
2.766463,2726.463870,409.239871
2.777468,2730.985656,412.334070
2.789652,2736.025478,414.776087
2.801836,2741.088823,416.204249
2.814020,2746.163752,416.694151
2.826204,2751.239519,416.364410
2.838388,2756.307012,415.361831
2.850573,2761.359009,413.848173
2.864906,2767.275473,411.638379
2.879240,2773.158434,409.214926
2.893573,2779.006606,406.824286
2.907907,2784.822082,404.687680
2.922240,2790.609918,402.996616
2.936574,2796.377673,401.909358
2.950907,2802.134927,401.548469
2.968646,2809.262046,402.231942
2.986385,2816.412976,404.240153
3.004123,2823.611361,407.576872
3.021862,2830.880293,412.178731
3.039601,2838.241271,417.933109
3.057340,2845.713507,424.697526
3.075078,2853.313555,432.318087
3.092817,2861.055251,440.643486
3.110556,2868.949838,449.534399
3.128295,2877.006232,458.867444
3.148285,2886.287850,469.781250
3.168276,2895.790741,480.983211
3.188267,2905.519364,492.342835
3.208258,2915.475489,503.718284
3.228249,2925.657748,514.933180
3.245659,2934.705981,524.384878
3.258568,2941.518559,531.071989
3.271477,2948.415036,537.361199
3.284385,2955.389397,543.112685
3.295088,2961.225508,547.354798
3.305791,2967.103949,551.003308
3.316494,2973.017734,553.938240
3.327197,2978.958552,556.032812
3.337900,2984.916726,557.159585
3.348603,2990.881244,557.198963
3.359306,2996.839905,556.049614
3.368053,3001.696120,554.176301
3.376800,3006.532182,551.440965
3.385547,3011.340544,547.845737
3.394294,3016.113782,543.416227
3.403041,3020.844795,538.202085
3.411788,3025.527023,532.276010
3.420535,3030.154633,525.731248
3.429282,3034.722684,518.677898
3.438029,3039.227258,511.238637
3.446776,3043.665550,503.544495
3.455523,3048.035923,495.731296
3.464270,3052.337938,487.937046
3.473017,3056.572366,480.300448
3.481764,3060.741192,472.960139
3.490511,3064.847612,466.054378
3.499258,3068.896028,459.720306
3.508005,3072.892029,454.092071
3.515155,3076.124026,450.105371
3.522305,3079.329704,446.739927
3.529454,3082.513711,444.051951
3.536604,3085.681061,442.086923
3.543754,3088.837045,440.876675
3.550903,3091.987126,440.436550
3.558940,3095.527693,440.855878
3.566976,3099.075407,442.206390
3.575013,3102.637491,444.416565
3.583049,3106.220452,447.380556
3.591085,3109.829815,450.961134
3.599122,3113.469894,454.994964
3.607158,3117.143610,459.300134
3.615195,3120.852377,463.685554
3.623231,3124.596073,467.961428
3.631267,3128.373089,471.949797
3.639304,3132.180468,475.494115
3.647340,3136.014105,478.466810
3.655377,3139.869005,480.774001
3.663413,3143.739561,482.357327
3.671450,3147.619839,483.193019
3.679486,3151.503841,483.288699
3.687522,3155.385743,482.678565
3.695559,3159.260084,481.417780
3.703595,3163.121909,479.576756
3.711632,3166.966875,477.235895
3.719668,3170.791308,474.481096
3.727704,3174.592235,471.400225
3.735741,3178.367386,468.080521
3.743777,3182.115185,464.606856
3.751814,3185.834726,461.060716
3.759850,3189.525738,457.519664
3.767886,3193.188561,454.057108
3.776975,3197.298055,450.322700
3.786063,3201.374823,446.870355
3.795152,3205.421825,443.785866
3.804240,3209.442761,441.146729
3.813328,3213.441997,439.021066
3.822417,3217.424468,437.466214
3.833073,3222.079973,436.429934
3.843729,3226.729168,436.287915
3.854386,3231.381716,437.060015
3.865042,3236.047334,438.736549
3.875699,3240.735480,441.278883
3.886355,3245.455055,444.622004
3.897011,3250.214148,448.678865
3.898366,3250.822371,449.240598
3.899721,3251.431361,449.811975
3.899992,3251.553268,449.927576
3.899993,3251.553638,449.927927
3.899993,3251.554008,449.928278
3.899994,3251.554378,449.928628
3.899995,3251.554748,449.928979
3.899996,3251.555118,449.929330
3.899998,3251.555858,449.930032
3.899999,3251.556383,449.930530
3.899999,3251.556577,449.931467
3.900000,3251.556771,449.935157
3.900000,3251.557057,449.941678
3.900001,3251.557342,449.946328
3.900001,3251.557627,449.947147
3.900002,3251.558008,449.947092
3.900003,3251.558389,449.947037
3.900004,3251.558770,449.946982
3.900012,3251.562579,449.946432
3.900021,3251.566388,449.945882
3.900029,3251.570197,449.945332
3.900114,3251.608288,449.939845
3.900199,3251.646378,449.934377
3.900283,3251.684468,449.928928
3.900368,3251.722558,449.923497
3.901215,3252.103429,449.870219
3.902061,3252.484255,449.818782
3.902908,3252.865038,449.769146
3.903754,3253.245781,449.721272
3.904601,3253.626483,449.675119
3.913067,3257.431620,449.299568
3.921532,3261.234149,449.052716
3.929998,3265.034997,448.896075
3.938464,3268.834772,448.793360
3.946930,3272.633788,448.711576
3.955395,3276.432097,448.621915
3.971661,3283.727423,448.343993
3.987928,3291.016480,447.838545
4.004194,3298.295131,447.063640
4.020460,3305.559093,446.040819
4.036726,3312.804842,444.838979
4.052992,3320.030231,443.554569
4.069258,3327.234762,442.291354
4.085524,3334.419563,441.142084
4.101790,3341.587073,440.173671
4.121048,3350.054726,439.300774
4.140305,3358.508302,438.699890
4.159562,3366.952189,438.273491
4.178819,3375.388343,437.868158
4.198077,3383.815468,437.306492
4.217334,3392.228917,436.423420
4.236591,3400.621248,435.098484
4.255848,3408.983310,433.276751
4.275106,3417.305586,430.974747
4.294363,3425.579508,428.272586
4.313620,3433.798532,425.296806
4.332877,3441.958827,422.199310
4.352135,3450.059563,419.136693
4.373771,3459.092699,415.914476
4.395407,3468.060048,413.077702
4.417043,3476.971157,410.727165
4.438680,3485.837028,408.895871
4.460316,3494.668667,407.552971
4.481952,3503.475846,406.618548
4.503589,3512.266276,405.986218
4.525225,3521.045303,405.547661
4.546861,3529.816097,405.212496
4.568497,3538.580171,404.918748
4.590134,3547.338012,404.632649
4.611770,3556.089609,404.340086
4.633406,3564.834746,404.034096
4.655043,3573.573024,403.703235
4.676679,3582.303680,403.324554
4.698315,3591.025318,402.862980
4.719951,3599.735696,402.276791
4.741588,3608.431683,401.526998
4.763224,3617.109424,400.587486
4.788084,3627.052146,399.267747
4.812944,3636.959140,397.721724
4.837804,3646.825557,396.016903
4.862664,3656.648553,394.244560
4.887524,3666.427664,392.501900
4.912384,3676.164732,390.874675
4.937244,3685.863447,389.424047
4.951924,3691.574448,388.663890
4.966604,3697.274833,387.977454
4.981284,3702.965670,387.362422
4.995963,3708.647973,386.813762
5.010643,3714.322667,386.324447
5.025323,3719.990563,385.886223
5.042395,3726.574545,385.429182
5.059468,3733.151114,385.015686
5.076540,3739.720904,384.632968
5.093612,3746.284341,384.269568
5.110684,3752.841665,383.915343
5.127757,3759.392955,383.561220
5.150810,3768.229643,383.068440
5.173863,3777.054611,382.541178
5.192561,3784.203008,382.075475
5.211259,3791.342300,381.565954
5.229957,3798.471596,381.005169
5.248654,3805.589887,380.388073
5.267352,3812.696096,379.712771
5.289289,3821.016516,378.848999
5.311226,3829.317221,377.917932
5.333163,3837.596911,376.936274
5.355100,3845.854704,375.925510
5.377037,3854.090221,374.909274
5.398974,3862.303598,373.910638
5.413959,3867.901790,373.248964
5.428945,3873.490231,372.609890
5.443930,3879.069288,371.997151
5.458915,3884.639375,371.413112
5.473901,3890.200933,370.858791
5.500371,3900.005324,369.950948
5.526841,3909.786813,369.125547
5.553311,3919.547371,368.366617
5.579781,3929.288506,367.654544
5.606250,3939.011184,366.968746
5.632720,3948.715836,366.289386
5.651209,3955.483742,365.808910
5.669698,3962.242669,365.317176
5.688187,3968.992363,364.809412
5.706676,3975.732490,364.281747
5.725166,3982.462655,363.731400
5.754685,3993.186387,362.802477
5.784205,4003.881796,361.813735
5.813725,4014.547253,360.775910
5.843245,4025.181564,359.707216
5.872765,4035.784149,358.630171
5.902284,4046.355097,357.567416
5.910440,4049.270007,357.278998
5.918595,4052.182577,356.993470
5.926751,4055.092832,356.711113
5.934906,4058.000797,356.432158
5.943061,4060.906502,356.156796
5.964084,4068.386753,355.464394
5.985108,4075.852718,354.797730
6.006131,4083.304933,354.156018
6.027154,4090.743900,353.536910
6.048177,4098.170059,352.936859
6.074826,4107.565430,352.196763
6.101475,4116.941286,351.470431
6.128123,4126.297859,350.747984
6.154772,4135.635129,350.020289
6.181421,4144.952849,349.279717
6.208069,4154.250599,348.520754
6.234718,4163.527842,347.740479
6.261366,4172.784004,346.938818
6.291435,4183.202066,346.012056
6.315657,4191.574036,345.253267
6.339879,4199.927550,344.489104
6.364101,4208.262545,343.725166
6.388323,4216.579094,342.966867
6.412545,4224.877394,342.218887
6.436768,4233.157738,341.484726
6.460990,4241.420490,340.766446
6.485212,4249.666043,340.064594
6.509434,4257.894789,339.378309
6.545353,4270.067175,338.384758
6.570795,4278.667262,337.693653
6.596236,4287.249850,337.008376
6.621677,4295.815034,336.324853
6.647118,4304.362810,335.639366
6.672559,4312.893089,334.948881
6.698000,4321.405713,334.251299
6.723441,4329.900488,333.545623
6.748883,4338.377207,332.832006
6.774324,4346.835680,332.111668
6.803885,4356.641016,331.269026
6.833447,4366.421401,330.424440
6.857821,4374.466724,329.729930
6.882195,4382.495166,329.039739
6.906569,4390.506861,328.355899
6.930943,4398.501980,327.679865
6.955318,4406.480726,327.012416
6.979692,4414.443310,326.353628
7.011229,4424.722245,325.513099
7.042766,4434.974853,324.683515
7.074303,4445.201426,323.861364
7.100020,4453.521840,323.193755
7.125738,4461.825094,322.526610
7.151456,4470.111179,321.858316
7.177174,4478.380048,321.187706
7.202892,4486.631633,320.514139
7.228609,4494.865857,319.837644
7.254327,4503.082651,319.158813
7.280045,4511.281965,318.478550
7.305763,4519.463778,317.797932
7.331813,4527.733354,317.109373
7.357862,4535.985018,316.422911
7.383912,4544.218840,315.739738
7.409962,4552.434919,315.060848
7.436011,4560.633376,314.386943
7.462061,4568.814347,313.718376
7.488111,4576.977972,313.055165
7.514161,4585.124389,312.397019
7.540210,4593.253721,311.743393
7.566260,4601.366078,311.093560
7.592310,4609.461548,310.446691
7.622597,4618.852790,309.697196
7.652884,4628.221360,308.949303
7.683172,4637.567290,308.201974
7.713459,4646.890585,307.454492
7.743746,4656.191234,306.706513
7.774034,4665.469221,305.958073
7.804321,4674.724537,305.209546
7.834608,4683.957188,304.461574
7.864896,4693.167203,303.714963
7.895183,4702.354635,302.970577
7.925470,4711.519566,302.229229
7.965953,4723.734737,301.244182
7.997983,4733.371104,300.470218
8.030013,4742.982761,299.701218
8.062043,4752.569865,298.937034
8.094072,4762.132565,298.177260
8.126102,4771.670994,297.421315
8.158132,4781.185263,296.668522
8.190162,4790.675462,295.918196
8.222191,4800.141660,295.169723
8.262578,4812.043707,294.227886
8.302966,4823.907751,293.287698
8.335657,4833.483252,292.527797
8.368348,4843.033929,291.769097
8.401039,4852.559826,291.011940
8.433730,4862.061002,290.256751
8.466422,4871.537527,289.503984
8.514731,4885.496508,288.396864
8.563040,4899.402175,287.296936
8.600604,4910.178107,286.446989
8.638168,4920.922198,285.601639
8.675731,4931.634617,284.760602
8.713295,4942.315518,283.923456
